 #                                                                                ref per =   0.0 secs


  level    radius        rho         vpv         vph         vsv         vsh         eta         qmu         qkap

     1         0.0     7941.29     4234.63     4234.63     3401.39     3401.39     1.00000        0.00        0.00
     2     17546.5     7940.29     4233.58     4233.58     3400.26     3400.26     1.00000        0.00        0.00
     3     35092.9     7939.07     4232.31     4232.31     3398.89     3398.89     1.00000        0.00        0.00
     4     52639.4     7937.65     4230.82     4230.82     3397.28     3397.28     1.00000        0.00        0.00
     5     70185.9     7936.02     4229.12     4229.12     3395.45     3395.45     1.00000        0.00        0.00
     6     87732.3     7934.19     4227.21     4227.21     3393.39     3393.39     1.00000        0.00        0.00
     7    105278.8     7932.17     4225.10     4225.10     3391.11     3391.11     1.00000        0.00        0.00
     8    122825.2     7929.96     4222.78     4222.78     3388.62     3388.62     1.00000        0.00        0.00
     9    140371.7     7927.56     4220.28     4220.28     3385.92     3385.92     1.00000        0.00        0.00
    10    157918.2     7924.98     4217.58     4217.58     3383.01     3383.01     1.00000        0.00        0.00
    11    175464.6     7922.22     4214.70     4214.70     3379.89     3379.89     1.00000        0.00        0.00
    12    193011.1     7919.29     4211.63     4211.63     3376.58     3376.58     1.00000        0.00        0.00
    13    210557.6     7916.19     4208.38     4208.38     3373.08     3373.08     1.00000        0.00        0.00
    14    228104.0     7912.91     4204.96     4204.96     3369.38     3369.38     1.00000        0.00        0.00
    15    245650.5     7909.48     4201.36     4201.36     3365.50     3365.50     1.00000        0.00        0.00
    16    263197.0     7905.88     4197.60     4197.60     3361.43     3361.43     1.00000        0.00        0.00
    17    280743.4     7902.12     4193.66     4193.66     3357.17     3357.17     1.00000        0.00        0.00
    18    298289.9     7898.24     4189.60     4189.60     3352.79     3352.79     1.00000        0.00        0.00
    19    315836.4     7894.03     4185.19     4185.19     3348.02     3348.02     1.00000        0.00        0.00
    20    333382.8     7894.03     4185.19     4185.19     3348.02     3348.02     1.00000        0.00        0.00
    21    333382.8     3581.71     6446.29     6446.29     4707.13     4707.13     1.00000        0.00        0.00
    22    350929.3     3578.94     6436.39     6436.39     4699.07     4699.07     1.00000        0.00        0.00
    23    368475.8     3576.07     6426.13     6426.13     4690.96     4690.96     1.00000        0.00        0.00
    24    386022.2     3573.20     6415.88     6415.88     4682.90     4682.90     1.00000        0.00        0.00
    25    403568.7     3570.32     6405.56     6405.56     4674.87     4674.87     1.00000        0.00        0.00
    26    421115.2     3567.41     6395.18     6395.18     4666.87     4666.87     1.00000        0.00        0.00
    27    438661.6     3564.50     6384.75     6384.75     4658.91     4658.91     1.00000        0.00        0.00
    28    456208.1     3561.58     6374.27     6374.27     4650.99     4650.99     1.00000        0.00        0.00
    29    473754.5     3558.64     6363.74     6363.74     4643.11     4643.11     1.00000        0.00        0.00
    30    491301.0     3555.69     6353.17     6353.17     4635.27     4635.27     1.00000        0.00        0.00
    31    508847.5     3552.73     6342.56     6342.56     4627.48     4627.48     1.00000        0.00        0.00
    32    526393.9     3549.76     6331.90     6331.90     4619.74     4619.74     1.00000        0.00        0.00
    33    543940.4     3546.79     6321.20     6321.20     4612.04     4612.04     1.00000        0.00        0.00
    34    561486.9     3543.80     6310.47     6310.47     4604.40     4604.40     1.00000        0.00        0.00
    35    579033.3     3540.81     6299.71     6299.71     4596.81     4596.81     1.00000        0.00        0.00
    36    596579.8     3537.81     6288.91     6288.91     4589.27     4589.27     1.00000        0.00        0.00
    37    614126.3     3534.81     6278.09     6278.09     4581.78     4581.78     1.00000        0.00        0.00
    38    631672.7     3531.80     6267.23     6267.23     4574.35     4574.35     1.00000        0.00        0.00
    39    649219.2     3528.79     6256.36     6256.36     4566.98     4566.98     1.00000        0.00        0.00
    40    666765.7     3525.77     6245.45     6245.45     4559.67     4559.67     1.00000        0.00        0.00
    41    684312.1     3522.75     6234.52     6234.52     4552.42     4552.42     1.00000        0.00        0.00
    42    701858.6     3519.73     6223.57     6223.57     4545.23     4545.23     1.00000        0.00        0.00
    43    719405.1     3516.70     6212.60     6212.60     4538.10     4538.10     1.00000        0.00        0.00
    44    736951.5     3513.67     6201.61     6201.61     4531.03     4531.03     1.00000        0.00        0.00
    45    754498.0     3510.64     6190.61     6190.61     4524.03     4524.03     1.00000        0.00        0.00
    46    772044.4     3507.61     6179.58     6179.58     4517.09     4517.09     1.00000        0.00        0.00
    47    789590.9     3504.57     6168.55     6168.55     4510.22     4510.22     1.00000        0.00        0.00
    48    807137.4     3501.54     6157.49     6157.49     4503.42     4503.42     1.00000        0.00        0.00
    49    824683.8     3498.51     6146.43     6146.43     4496.68     4496.68     1.00000        0.00        0.00
    50    842230.3     3495.47     6135.35     6135.35     4490.02     4490.02     1.00000        0.00        0.00
    51    859776.8     3492.44     6124.26     6124.26     4483.42     4483.42     1.00000        0.00        0.00
    52    877323.2     3489.41     6113.16     6113.16     4476.89     4476.89     1.00000        0.00        0.00
    53    894869.7     3486.38     6102.05     6102.05     4470.44     4470.44     1.00000        0.00        0.00
    54    912416.2     3483.35     6090.93     6090.93     4464.06     4464.06     1.00000        0.00        0.00
    55    929962.6     3480.32     6079.80     6079.80     4457.75     4457.75     1.00000        0.00        0.00
    56    947509.1     3477.29     6068.67     6068.67     4451.51     4451.51     1.00000        0.00        0.00
    57    965055.6     3474.27     6057.52     6057.52     4445.35     4445.35     1.00000        0.00        0.00
    58    982602.0     3471.24     6046.38     6046.38     4439.26     4439.26     1.00000        0.00        0.00
    59   1000148.5     3468.22     6035.22     6035.22     4433.25     4433.25     1.00000        0.00        0.00
    60   1017694.9     3465.20     6024.05     6024.05     4427.32     4427.32     1.00000        0.00        0.00
    61   1035241.4     3462.19     6012.88     6012.88     4421.46     4421.46     1.00000        0.00        0.00
    62   1052787.9     3459.18     6001.70     6001.70     4415.68     4415.68     1.00000        0.00        0.00
    63   1070334.3     3456.16     5990.52     5990.52     4409.98     4409.98     1.00000        0.00        0.00
    64   1087880.8     3453.16     5979.33     5979.33     4404.36     4404.36     1.00000        0.00        0.00
    65   1105427.3     3450.15     5968.13     5968.13     4398.81     4398.81     1.00000        0.00        0.00
    66   1122973.7     3447.15     5956.93     5956.93     4393.35     4393.35     1.00000        0.00        0.00
    67   1140520.2     3444.15     5945.72     5945.72     4387.97     4387.97     1.00000        0.00        0.00
    68   1158066.7     3441.15     5934.50     5934.50     4382.66     4382.66     1.00000        0.00        0.00
    69   1175613.1     3438.16     5923.27     5923.27     4377.44     4377.44     1.00000        0.00        0.00
    70   1193159.6     3435.16     5912.03     5912.03     4372.29     4372.29     1.00000        0.00        0.00
    71   1210706.1     3432.17     5900.78     5900.78     4367.23     4367.23     1.00000        0.00        0.00
    72   1228252.5     3429.18     5889.52     5889.52     4362.25     4362.25     1.00000        0.00        0.00
    73   1245799.0     3426.19     5878.25     5878.25     4357.35     4357.35     1.00000        0.00        0.00
    74   1263345.5     3423.21     5866.97     5866.97     4352.53     4352.53     1.00000        0.00        0.00
    75   1280891.9     3420.23     5855.66     5855.66     4347.80     4347.80     1.00000        0.00        0.00
    76   1298438.4     3417.24     5844.35     5844.35     4343.14     4343.14     1.00000        0.00        0.00
    77   1315984.9     3414.26     5833.02     5833.02     4338.57     4338.57     1.00000        0.00        0.00
    78   1333531.3     3411.28     5821.66     5821.66     4334.08     4334.08     1.00000        0.00        0.00
    79   1351077.8     3408.30     5810.29     5810.29     4329.67     4329.67     1.00000        0.00        0.00
    80   1368624.2     3405.32     5798.89     5798.89     4325.35     4325.35     1.00000        0.00        0.00
    81   1386170.7     3402.33     5787.47     5787.47     4321.10     4321.10     1.00000        0.00        0.00
    82   1403717.2     3399.35     5776.02     5776.02     4316.94     4316.94     1.00000        0.00        0.00
    83   1421263.6     3396.37     5764.54     5764.54     4312.86     4312.86     1.00000        0.00        0.00
    84   1438810.1     3393.38     5753.03     5753.03     4308.86     4308.86     1.00000        0.00        0.00
    85   1456356.6     3390.39     5741.48     5741.48     4304.94     4304.94     1.00000        0.00        0.00
    86   1473903.0     3387.39     5729.89     5729.89     4301.11     4301.11     1.00000        0.00        0.00
    87   1491449.5     3384.39     5718.26     5718.26     4297.35     4297.35     1.00000        0.00        0.00
    88   1508996.0     3381.39     5706.58     5706.58     4293.67     4293.67     1.00000        0.00        0.00
    89   1526542.4     3378.38     5694.85     5694.85     4290.07     4290.07     1.00000        0.00        0.00
    90   1544088.9     3375.37     5683.07     5683.07     4286.55     4286.55     1.00000        0.00        0.00
    91   1561635.4     3372.35     5671.23     5671.23     4283.11     4283.11     1.00000        0.00        0.00
    92   1579181.8     3369.32     5659.33     5659.33     4279.74     4279.74     1.00000        0.00        0.00
    93   1596728.3     3366.28     5647.36     5647.36     4276.46     4276.46     1.00000        0.00        0.00
    94   1614274.8     3363.23     5635.32     5635.32     4273.25     4273.25     1.00000        0.00        0.00
    95   1631821.2     3360.17     5623.22     5623.22     4270.12     4270.12     1.00000        0.00        0.00
    96   1649367.7     3357.11     5611.03     5611.03     4267.06     4267.06     1.00000        0.00        0.00
    97   1666914.1     3354.02     5598.74     5598.74     4264.07     4264.07     1.00000        0.00        0.00
    98   1684460.6     3350.92     5586.33     5586.33     4261.15     4261.15     1.00000        0.00        0.00
    99   1702007.1     2864.25     5194.30     5194.30     3617.15     3617.15     1.00000        0.00        0.00
   100   1719553.5     2861.69     5175.04     5175.04     3615.63     3615.63     1.00000        0.00        0.00
   101   1737100.0     2857.05     5160.02     5160.02     3612.30     3612.30     1.00000        0.00        0.00

integration precision =  0.1000E-07  root precision =  0.1000E-07  gravity cut off =  0.6283     rad/s


      mode        phs vel       w(mhz)          t(secs)      grp vel(km/s)        q             raylquo

    1 s    0    69.00691        3.161243        316.3312        0.000000        0.000000      -0.4016653E-06
    2 s    0    103.6895        4.750070        210.5232        0.000000        0.000000      -0.1346794E-05
    3 s    0    135.5352        6.208942        161.0580        0.000000        0.000000      -0.1890966E-05
    4 s    0    171.7430        7.867638        127.1030        0.000000        0.000000      -0.1978257E-05
    5 s    0    209.9102        9.616096        103.9923        0.000000        0.000000      -0.2995438E-05
